Window_Config,Dataset,Subject,Target_RespBand_Ratio,Stem_Channel_AbsR_Mean,Stem_PC1_Variance_Share,Stem_RespBand_Ratio,Stem_ACF_r,B1_Channel_AbsR_Mean,B1_PC1_Variance_Share,B1_RespBand_Ratio,B1_ACF_r,B2_Channel_AbsR_Mean,B2_PC1_Variance_Share,B2_RespBand_Ratio,B2_ACF_r,B3_Channel_AbsR_Mean,B3_PC1_Variance_Share,B3_RespBand_Ratio,B3_ACF_r,B4_Channel_AbsR_Mean,B4_PC1_Variance_Share,B4_RespBand_Ratio,B4_ACF_r
w20s_nonoverlap,CapnoBase,0009,0.9994896650314331,0.46858920252840347,0.38804911289337835,0.8332749007390818,0.9966239985878523,0.37832234128822106,0.26119557982021746,0.8476106395747421,0.9972444712295192,0.4076436756142758,0.2683798603658885,0.8985019661839025,0.9989869888625913,0.40089466440127297,0.2710178823090262,0.8979588270476423,0.9985056236731774,0.3780112055945013,0.2663609129043722,0.9054358960651111,0.9981024919156143
w20s_nonoverlap,CapnoBase,0015,0.9622819423675537,0.2853854589074327,0.25656718718056276,0.39130563086268433,0.6127118017498986,0.31642026873993556,0.2277781290802986,0.611791146333776,0.8466496384399408,0.3721016793160779,0.2487397738839531,0.8662255539631832,0.9994490738103815,0.38636902118195926,0.2584210670110403,0.8878707734786201,0.9995441641355826,0.385702202296239,0.252326987773478,0.8942481554253724,0.9997208236642114
w20s_nonoverlap,CapnoBase,0016,0.9986164569854736,0.07701573831517872,0.2892066787063614,0.017313005625981728,0.026589442133782226,0.09064997426275895,0.22395778206814376,0.0446082251269826,0.03276062709747387,0.13589393366217387,0.18579471094188157,0.3242775759284407,0.33262066736195045,0.1712288380265764,0.1779933683804827,0.779053221411294,0.7864605050904534,0.19016746611588412,0.1571524046552105,0.7779025980149257,0.6038819238152856
w20s_nonoverlap,CapnoBase,0018,0.2237287312746048,0.20631373283517274,0.2842440770770482,0.12052144907627095,0.06959673438461299,0.20974369445590682,0.16365262395890143,0.319669972241763,0.2743699014914463,0.24868003818079262,0.1947144101849849,0.5540523596468659,0.831656295958554,0.2535589173072039,0.18133586775166566,0.646110404724196,0.8289341241729038,0.21303744453320114,0.16398381245771967,0.5544557312061366,0.8877482404123885
w20s_nonoverlap,CapnoBase,0023,0.9990518689155579,0.3744139126946567,0.26597593595478036,0.7046030202152083,0.9882992017760973,0.357178964494502,0.23214766230503747,0.7682686977129717,0.9946405172642233,0.42166529781961953,0.27577604320873716,0.8922426117433578,0.9990162004992434,0.4087597369246015,0.27528959183078655,0.9021168553152853,0.9988780805653329,0.4016865495194661,0.26481119724502333,0.8956054491293179,0.9983405806956894
w20s_nonoverlap,CapnoBase,0028,0.9986370205879211,0.35188672148282896,0.2881369595180819,0.6970771377191446,0.9870964751747408,0.2862284517889475,0.21305395066338415,0.7082913880517144,0.9814081428112439,0.3167852558296558,0.2362689109561058,0.8244806273362558,0.9875349413411998,0.3264262756148874,0.255091536627817,0.9210832732700854,0.9960944021089095,0.3424772136246917,0.23971623727139948,0.9389426395720438,0.9964003517942713
w20s_nonoverlap,CapnoBase,0029,0.9841247797012329,0.27048879651270025,0.3302537781500641,0.6949874936717396,0.556953292748369,0.23574841184458226,0.24566753529395222,0.7241644891974497,0.5809460520599576,0.26013256714683874,0.26428780251094236,0.8107660332423062,0.5558813999664228,0.2804789041862992,0.2713474470684178,0.859318437071816,0.5412211859396323,0.3036255237805912,0.2620190874325247,0.8701491355105256,0.7009232782016795
w20s_nonoverlap,CapnoBase,0030,0.6417648792266846,0.2372842080660568,0.3015077408554255,0.5828543046092105,0.7255000026963806,0.23067461552033772,0.22195875548904875,0.5547029719401139,0.8224344157238331,0.24134825591343456,0.2313393463506294,0.620572544759379,0.7525273467714081,0.23849767125087065,0.21798010766392828,0.6503552100305233,0.6512444713562648,0.20082975514555948,0.19562959032782126,0.5960258171014564,0.3139855225655112
w20s_nonoverlap,CapnoBase,0031,0.8090426921844482,0.12550194570030626,0.2651028428504742,0.3904873121015129,-0.039536733022428244,0.10877410280243514,0.1865526622982195,0.4775621799283352,-0.11841402716271904,0.12684584070517332,0.1785929973155914,0.664135404403465,-0.18629555822762725,0.15018331048075192,0.2002007537817223,0.8083273030301331,-0.28031842978188565,0.16721500090370764,0.17990872944980926,0.804854466755709,-0.2562207475204477
w20s_nonoverlap,CapnoBase,0032,0.9504555463790894,0.29772172616393106,0.33728396384253706,0.7738297885937694,0.956157633441341,0.23889464209859823,0.2099597935182634,0.7134737943265864,0.9456598532970254,0.2734577738931588,0.2297456349992235,0.8555230621732042,0.9551712453230984,0.31908420376126084,0.24459328055843177,0.9090450841198967,0.9688289920491734,0.31743707319042647,0.21191611421084197,0.9182563656545222,0.9751748154761043
w20s_nonoverlap,CapnoBase,0035,0.9879803657531738,0.18665382091732466,0.36925043232916693,0.44981430172842174,0.553733255056362,0.19210989042933016,0.2571105345959878,0.5202796511426868,0.7189082812794191,0.23432939937861577,0.2968692450198085,0.6421107631792894,0.8457526578118242,0.23547837738448865,0.30877678993460494,0.6705467146849995,0.7873981335637968,0.22963724124310425,0.2803234136081935,0.6919307817245022,0.8108815268716477
w20s_nonoverlap,CapnoBase,0038,0.9994753003120422,0.4260922930487203,0.33015782420568596,0.7978427455958669,0.9853810423794789,0.34797124509176974,0.22135286800022214,0.7933494351119798,0.9919478828955176,0.4002077714683638,0.25186376570272156,0.897274093880129,0.9970445487581795,0.4006063011964072,0.2598271915701332,0.924561545097779,0.9964487890119362,0.39785726068799465,0.26858553322907547,0.9170649451678393,0.9959391491181826
w20s_nonoverlap,CapnoBase,0103,0.9996564984321594,0.38882280617249654,0.3016683871966752,0.7426606169050558,0.9910632081290441,0.3260888360063696,0.20007621550943303,0.7982024575464864,0.994939106820263,0.3685323793483013,0.22626383551417287,0.8799920705158724,0.9971441204632093,0.3926917418632517,0.25620309351500986,0.9076522226022216,0.9976099420559494,0.4159266038878664,0.2611271822509191,0.9411345565573792,0.9994812124128202
w20s_nonoverlap,CapnoBase,0104,0.998599112033844,0.09172623435531609,0.29202417241603434,0.0029321016765642464,-0.022237145832630607,0.13717997388871508,0.20975605493559613,0.04604332296361335,0.037104975207364395,0.24723013783641154,0.19237328164876633,0.6197056417588896,0.7369825215917553,0.2731954737960332,0.1897844843162572,0.7901164607605952,0.9164243291463586,0.3007496575407103,0.1769565600543389,0.9375896389128741,0.9802078641409823
w20s_nonoverlap,CapnoBase,0105,0.9986496567726135,0.15318689088479973,0.29663848402370924,0.07228066820009531,0.10026530070676444,0.1888885309897226,0.22719938778347815,0.07469880072995029,0.08261651384233623,0.25385775129489313,0.19965498877400592,0.31534684129675844,0.4035206294210713,0.3217087895743303,0.22239288649711317,0.9206805309869992,0.9935332346837152,0.3092031581044998,0.21022015099155775,0.9255619099998604,0.9964940533549261
w20s_nonoverlap,CapnoBase,0115,0.010901874862611294,0.10690247586362867,0.2440311365955711,0.3921745441454296,0.21099056537976454,0.12486530986744403,0.18412231395909162,0.5665426531268959,0.29372834599287073,0.14782043384500806,0.21206714263230567,0.6170634508738343,0.49258487278763935,0.1473262220135425,0.22858832090930367,0.6916597995866697,0.24489080231944826,0.13547315671749713,0.18280888982059837,0.6655055640320721,0.35490235597743053
w20s_nonoverlap,CapnoBase,0121,0.9999669194221497,0.1602684290907583,0.27213728717244984,0.5016181716695276,0.09874306022195632,0.15389496753944046,0.2091757019278729,0.48072880864966955,0.24189444688582742,0.19883769682142127,0.2377522388448647,0.6588338092385586,0.4820079071716461,0.23621389197534223,0.2718728944877142,0.6926288664027541,0.5299110452117909,0.24165894912643102,0.22910121926857988,0.7244451070791135,0.6791135554335517
w20s_nonoverlap,CapnoBase,0122,0.9987019896507263,0.15437963303954041,0.31920732982556366,0.003226340078079267,-0.00796557157527518,0.188814596845426,0.2269944477331306,0.023244809935883588,0.017627824575975407,0.28935949005000644,0.21525304913831647,0.24094985696521942,0.31824167513417123,0.3467595586879344,0.22049699416977728,0.8454847469962492,0.9862917904238699,0.34488058140809946,0.2125861951164566,0.9338365675562166,0.9970367625074648
w20s_nonoverlap,CapnoBase,0123,0.9989529848098755,0.2997693548247427,0.25800545019150734,0.6385430402894071,0.9749695919586573,0.25968711158063695,0.1874677950517812,0.6922051228432946,0.9698716211391086,0.3351284809248203,0.2534887364474374,0.8201144144429584,0.9723645538694075,0.37401326395186923,0.2933274447468361,0.8434885980305943,0.9745857185115367,0.33222977872180903,0.237273206651213,0.851275320034333,0.975678264709353
w20s_nonoverlap,CapnoBase,0125,0.9991313219070435,0.19925916955696,0.2554267587834503,0.0636563666086289,0.09279719610708105,0.2532357133697786,0.17530008246178297,0.3946827683368395,0.6057840463811432,0.35987910053430205,0.24072290006026487,0.8423821541363484,0.9946881664936956,0.4167918407145949,0.2900238222362002,0.9375600782633707,0.9982621986082642,0.4240748568398982,0.29391234705367797,0.9508324665188708,0.9988186029549354
w20s_nonoverlap,CapnoBase,0127,0.999542236328125,0.1442208694226296,0.2531804996257799,0.026534951996440074,0.07074351598312081,0.17233007230133915,0.1815557187988773,0.06637360401926064,0.20663842288073297,0.2685663777477558,0.17839771395488738,0.6214044841477929,0.9318682646113898,0.2913664108021588,0.1955551860169015,0.8379031069309884,0.9979196485724193,0.28973239738107315,0.16520237209377397,0.8546956032899665,0.9983455364438255
w20s_nonoverlap,CapnoBase,0128,0.9986857771873474,0.12982237018303958,0.2633333411102053,0.0805371132729069,0.29543461794636033,0.16561314659637003,0.2107581659665956,0.07876510009054548,0.2166850692919258,0.2609773129350307,0.21412204958328437,0.36007906589994715,0.6198108218595273,0.3083551786306205,0.20865759093737868,0.7784827921444631,0.988462154028024,0.31924063066977554,0.19716382390055243,0.8873882320514737,0.9979627900252366
w20s_nonoverlap,CapnoBase,0133,0.9987436532974243,0.18376061630320528,0.25967514012347354,0.15387476003973022,0.2140702019036237,0.22428787426836802,0.19843406386275922,0.33486025199444,0.3999167613574455,0.30515913949313717,0.26561315530257096,0.6920377588038535,0.8439940247497626,0.36464364465830473,0.2883413762567723,0.8816913279992216,0.9616920215104446,0.3478246547535757,0.25010915662337224,0.9069641328343744,0.9738360845152196
w20s_nonoverlap,CapnoBase,0134,0.9987547993659973,0.2049488781290398,0.28992748502253196,0.010790808498081084,0.037300718839587854,0.2464275593703936,0.18260186020753444,0.06620279417635959,0.12422012008592942,0.3508782829500423,0.2270728682782115,0.7868912010303205,0.9827732205686196,0.368938927447561,0.2438901303495963,0.9106515660220933,0.9981808892316656,0.3972846625310548,0.2429369816074972,0.9606160084016899,0.9992492501163311
w20s_nonoverlap,CapnoBase,0142,0.9995710253715515,0.050071153785134194,0.2937004043457168,0.005951572570777712,0.008994846067615362,0.07494969337833265,0.2144642775958612,0.018150247616454295,0.00961396659403041,0.12605227579192144,0.17121214835050122,0.04177595306571045,0.017479304804456575,0.16108950616169368,0.1567533928432103,0.3563921723452674,0.39281900035517575,0.1950371230654627,0.13436153846468885,0.7598813979845324,0.9713311380396955
w20s_nonoverlap,CapnoBase,0147,0.9990006685256958,0.20708927851792672,0.2671384498925138,0.07999717914846353,0.1807278741549249,0.2264962569538724,0.2296592249582509,0.20339945934612402,0.30630629351619737,0.29803798262669506,0.24765446205145147,0.4787473692560746,0.6426617526912101,0.35887932189766136,0.27128758430103445,0.8095867393155881,0.9807939908503897,0.355988078312057,0.24549330527920435,0.8724060364177628,0.9931750781959291
w20s_nonoverlap,CapnoBase,0148,0.9988677501678467,0.13394453170663442,0.32547444451630164,0.05106961240927474,0.010959723944655565,0.16192005553570243,0.23086516292079073,0.2886528034464769,0.3125623009616446,0.21100903669155854,0.2564475639394998,0.6367045316905134,0.7772642509794218,0.23212711805359298,0.2784430567987767,0.6775690081775142,0.7455385577107467,0.23498356842318024,0.2395419795609759,0.6933125344797798,0.7120268180029484
w20s_nonoverlap,CapnoBase,0149,0.9988933801651001,0.13526722480816522,0.31965980216266504,0.1232012358624923,0.055900215547465305,0.1256578334714614,0.25834975981675995,0.19926671502159019,0.10330873862855831,0.16756033587129238,0.24696249339246842,0.3783500908899137,0.2570229019443502,0.21608936021245376,0.24263268468133684,0.6063125169874677,0.6128563721184462,0.23641945422598784,0.20733344359282332,0.7199550048354562,0.7757812439539382
w20s_nonoverlap,CapnoBase,0150,0.9989675283432007,0.29339125102383457,0.2880402905194011,0.3584915647233293,0.597032777344626,0.2747843856533219,0.20094636975432767,0.4980427287464991,0.8660626329250314,0.31148381448079465,0.22833150892500112,0.6038153345711765,0.9170447417924704,0.3535028671026769,0.23599229001669586,0.8478765330670495,0.9931052731426505,0.36392896118203905,0.23811071330451203,0.9247165296003642,0.9965140468313564
w20s_nonoverlap,CapnoBase,0309,0.9999972581863403,0.09618740216622838,0.2759925242046974,0.03425904426785956,0.04127817955297897,0.1348253353309574,0.1983610033547659,0.051383031980973194,0.04676587258358702,0.17667493037439186,0.1995879461706032,0.12406760879473683,0.15844095135976893,0.2190594767383919,0.18633601489863397,0.6717335044553181,0.5573268485779782,0.24720098511180907,0.17805794431945657,0.8973770170559008,0.73144374355608
w20s_nonoverlap,CapnoBase,0311,0.9999520182609558,0.13319086635100408,0.3346202141431931,0.026570841420992322,0.13571509198154333,0.18039026273656167,0.2566105631520035,0.08278718315624582,0.24871938067371105,0.2751563709356637,0.22783676817646173,0.36715257021469,0.6884201915822534,0.33448650856784096,0.22127474141637027,0.8414825545390993,0.9746801062763811,0.3569399785679846,0.22728376510256654,0.9437673852366756,0.9988355808013852
w20s_nonoverlap,CapnoBase,0312,0.9661372900009155,0.20011595589586548,0.36184689061041947,0.2539312652233335,0.2898190133482387,0.1889005343362881,0.2549727236272333,0.3176109275304471,0.34795793071427394,0.21746410373752276,0.23204807698916763,0.496120865291592,0.532867005180652,0.2595387173866357,0.2241208092397199,0.7717617661889707,0.8289667924620671,0.2630512263605985,0.20062355073370153,0.7842478741562328,0.8604639111129592
w20s_nonoverlap,CapnoBase,0313,0.9988558888435364,0.24599568585393317,0.28172200528238284,0.09408365479482643,0.1214917702162359,0.271276833890401,0.21351287687838905,0.292056766214313,0.3563241635666779,0.35171987390103615,0.24966525643530715,0.8927570882721372,0.9730725397099803,0.3851920942635532,0.27238464375492183,0.9251089299972869,0.9834415693736501,0.42577897424904104,0.30390538775021314,0.9680085392510285,0.9881104233902221
w20s_nonoverlap,CapnoBase,0322,0.998928964138031,0.2593856760059776,0.2877930679588861,0.16991478463809487,0.4086106378173522,0.27374082719607273,0.2015519715005466,0.3700463798220896,0.729134856597555,0.35575232097053683,0.23479150177848088,0.7560388273378669,0.9846472579598752,0.3786720759782985,0.26224298592493284,0.8846848730233844,0.9982701610170223,0.40113334914692045,0.24728985870369782,0.9390392327454099,0.9994369234395633
w20s_nonoverlap,CapnoBase,0325,0.9985747933387756,0.08893723587486042,0.3102359422438716,0.003222631555427548,0.0012256674822746995,0.11839433571593172,0.2125601796382648,0.0068029030930226025,0.003992326780338308,0.1928760626610415,0.21886028220388307,0.035212050602566165,0.040102543912265566,0.25462593460995314,0.17984666726025936,0.7169336250266914,0.885583090073927,0.26745136980625056,0.16501452097170372,0.8821238203472284,0.9942811624634905
w20s_nonoverlap,CapnoBase,0328,0.9872245192527771,0.30392256502162857,0.3011947370259821,0.7920517290699433,0.8665728675756587,0.2858782767318384,0.22898736994110425,0.7575882290341905,0.8967603518678287,0.3433131014340935,0.2589764569511228,0.9210979144800927,0.9197496780430819,0.38566465081775886,0.28898546408463666,0.9499162580564788,0.9527173028718486,0.3688321466410369,0.2636923118949907,0.9576006932606482,0.9763137052708779
w20s_nonoverlap,CapnoBase,0329,0.998727560043335,0.10192358495787486,0.3006403421630766,0.021368650383838745,0.03470289797291052,0.13385714874096216,0.19154347243432826,0.038352635552610675,0.04012471272288902,0.22194462557687564,0.1869997912239235,0.50838627572142,0.5077686344242347,0.2602902229796153,0.18641474797297844,0.8673220625482898,0.8460831290540828,0.25746740778492755,0.16586155814459347,0.9193572138579779,0.8508376180116919
w20s_nonoverlap,CapnoBase,0330,0.9996662139892578,0.1612116081978255,0.28716496073520786,0.04617625150162669,0.06725883209080086,0.19114870898633307,0.20932132607943324,0.05685891398145288,0.05662604623637307,0.27495054294056903,0.19464046823248426,0.5071352554957079,0.6122116712825448,0.32120301715904204,0.2161683555574974,0.7479650290799834,0.9475730986663846,0.36670422405166897,0.2393337029064254,0.8971800049702813,0.9918155833771302
w20s_nonoverlap,CapnoBase,0331,0.9992281198501587,0.21378022653592513,0.26185613310972006,0.1789989497308456,0.44320106471476395,0.23313861179512854,0.1809262991688755,0.44124358181438444,0.7812441376978714,0.3134945363957407,0.21859377195594218,0.7352001618737852,0.972800887616319,0.34274445710235674,0.21961281410285446,0.8862115328416893,0.9949147797038619,0.3478672055290131,0.20758201449158173,0.9138149752725889,0.9982965649114776
w20s_nonoverlap,CapnoBase,0332,0.977838397026062,0.0938392489104225,0.2674139560043829,0.007457525468145206,0.006119277793366261,0.10881196672281125,0.20563490147307975,0.02453336025002208,0.013935869093256219,0.1556573940161626,0.18927354236864113,0.11201296517057341,0.08592192908532585,0.1891893460034834,0.16552005874599707,0.46738770821957454,0.44364459854461086,0.2268267057976052,0.1513156917811029,0.5521414027267076,0.5127689480794809
w20s_nonoverlap,CapnoBase,0333,0.9988429546356201,0.22573112435298,0.2370177418617537,0.14795320862686465,0.3317593587125844,0.24025927224298163,0.18154828636380885,0.38160401484374445,0.722683360776282,0.3220942243263749,0.2348494534453167,0.860153976576079,0.9756259728021522,0.3496016698719235,0.24565740441899697,0.9120612970836408,0.9809755144999683,0.33910760387730904,0.21609349442499046,0.9275705330214549,0.9839363338897916
w20s_nonoverlap,CapnoBase,0370,0.8623639941215515,0.09616520974078857,0.2660720106885068,0.022696795074323168,0.022341401646942302,0.12709847499319402,0.18810161745720633,0.11822684786336574,0.09112290840212227,0.1820294962385202,0.1926421840672586,0.463676280530452,0.33067922720796883,0.22434398067952002,0.20750667833111555,0.8395553607299028,0.6495922807160904,0.23522624641146064,0.18035053154972122,0.8740094080292984,0.8208076288503822
